# 90Prime bokr (DECam r) filter curve: first column is wavelength in Angstrom; second column is the pure filter transmission; third column is the filter response include CCD QE; forth columns is the response including both CCD QE and atmospheric extinction at airmass of 1.0.
# wavelength (A)  res_noatm  respons_qe  res_qe_atm
5460.00 0.000 0.000 0.000
5470.00 0.000 0.000 0.000
5480.00 0.000 0.000 0.000
5490.00 0.000 0.000 0.000
5500.00 0.000 0.000 0.000
5510.00 0.000 0.000 0.000
5520.00 0.000 0.000 0.000
5530.00 0.000 0.000 0.000
5540.00 0.000 0.000 0.000
5550.00 0.000 0.000 0.000
5560.00 0.001 0.001 0.001
5570.00 0.001 0.001 0.001
5580.00 0.002 0.002 0.001
5590.00 0.003 0.002 0.002
5600.00 0.004 0.004 0.003
5610.00 0.007 0.006 0.006
5620.00 0.013 0.011 0.010
5630.00 0.022 0.019 0.017
5640.00 0.039 0.034 0.030
5650.00 0.072 0.062 0.055
5660.00 0.129 0.112 0.098
5670.00 0.220 0.191 0.167
5680.00 0.346 0.301 0.263
5690.00 0.492 0.427 0.373
5700.00 0.629 0.545 0.477
5710.00 0.741 0.642 0.562
5720.00 0.824 0.713 0.624
5730.00 0.880 0.761 0.666
5740.00 0.917 0.792 0.693
5750.00 0.938 0.810 0.709
5760.00 0.948 0.818 0.716
5770.00 0.952 0.820 0.718
5780.00 0.952 0.820 0.718
5790.00 0.951 0.818 0.717
5800.00 0.951 0.817 0.717
5810.00 0.952 0.818 0.719
5820.00 0.956 0.820 0.722
5830.00 0.961 0.824 0.725
5840.00 0.966 0.828 0.730
5850.00 0.971 0.831 0.733
5860.00 0.975 0.834 0.736
5870.00 0.977 0.835 0.737
5880.00 0.978 0.835 0.738
5890.00 0.979 0.834 0.737
5900.00 0.979 0.834 0.737
5910.00 0.979 0.833 0.737
5920.00 0.980 0.833 0.737
5930.00 0.981 0.834 0.738
5940.00 0.982 0.834 0.738
5950.00 0.983 0.833 0.737
5960.00 0.982 0.832 0.736
5970.00 0.981 0.830 0.735
5980.00 0.979 0.828 0.733
5990.00 0.976 0.825 0.730
6000.00 0.975 0.823 0.728
6010.00 0.974 0.822 0.727
6020.00 0.974 0.822 0.727
6030.00 0.975 0.822 0.728
6040.00 0.977 0.824 0.729
6050.00 0.979 0.825 0.731
6060.00 0.981 0.827 0.732
6070.00 0.983 0.827 0.733
6080.00 0.983 0.828 0.734
6090.00 0.983 0.827 0.734
6100.00 0.983 0.827 0.735
6110.00 0.983 0.826 0.735
6120.00 0.983 0.826 0.735
6130.00 0.984 0.826 0.736
6140.00 0.984 0.827 0.737
6150.00 0.985 0.827 0.737
6160.00 0.985 0.826 0.737
6170.00 0.984 0.825 0.737
6180.00 0.981 0.822 0.735
6190.00 0.977 0.819 0.732
6200.00 0.972 0.814 0.728
6210.00 0.966 0.809 0.724
6220.00 0.960 0.804 0.720
6230.00 0.956 0.799 0.717
6240.00 0.952 0.796 0.715
6250.00 0.951 0.795 0.714
6260.00 0.952 0.795 0.715
6270.00 0.954 0.797 0.717
6280.00 0.958 0.800 0.720
6290.00 0.964 0.804 0.724
6300.00 0.969 0.809 0.728
6310.00 0.974 0.813 0.733
6320.00 0.979 0.816 0.736
6330.00 0.982 0.818 0.739
6340.00 0.984 0.820 0.741
6350.00 0.985 0.820 0.741
6360.00 0.985 0.820 0.742
6370.00 0.985 0.820 0.742
6380.00 0.984 0.819 0.741
6390.00 0.984 0.818 0.741
6400.00 0.983 0.817 0.741
6410.00 0.982 0.816 0.740
6420.00 0.982 0.816 0.740
6430.00 0.982 0.815 0.740
6440.00 0.981 0.814 0.740
6450.00 0.980 0.813 0.740
6460.00 0.980 0.812 0.739
6470.00 0.979 0.811 0.739
6480.00 0.978 0.810 0.739
6490.00 0.978 0.810 0.739
6500.00 0.978 0.809 0.739
6510.00 0.978 0.809 0.739
6520.00 0.978 0.809 0.740
6530.00 0.979 0.810 0.740
6540.00 0.980 0.810 0.741
6550.00 0.980 0.810 0.742
6560.00 0.980 0.810 0.742
6570.00 0.980 0.810 0.742
6580.00 0.979 0.809 0.742
6590.00 0.978 0.808 0.741
6600.00 0.976 0.806 0.740
6610.00 0.974 0.804 0.738
6620.00 0.972 0.802 0.737
6630.00 0.971 0.801 0.736
6640.00 0.970 0.800 0.735
6650.00 0.969 0.799 0.735
6660.00 0.970 0.799 0.735
6670.00 0.971 0.800 0.736
6680.00 0.972 0.801 0.738
6690.00 0.975 0.802 0.740
6700.00 0.977 0.804 0.742
6710.00 0.979 0.806 0.744
6720.00 0.981 0.807 0.746
6730.00 0.983 0.809 0.747
6740.00 0.985 0.810 0.749
6750.00 0.986 0.810 0.750
6760.00 0.986 0.811 0.750
6770.00 0.987 0.811 0.750
6780.00 0.987 0.810 0.750
6790.00 0.986 0.810 0.750
6800.00 0.986 0.809 0.750
6810.00 0.986 0.809 0.750
6820.00 0.985 0.808 0.749
6830.00 0.985 0.808 0.749
6840.00 0.985 0.807 0.749
6850.00 0.984 0.807 0.749
6860.00 0.984 0.806 0.749
6870.00 0.983 0.806 0.748
6880.00 0.983 0.805 0.748
6890.00 0.982 0.804 0.748
6900.00 0.982 0.803 0.747
6910.00 0.981 0.803 0.747
6920.00 0.981 0.803 0.747
6930.00 0.981 0.802 0.747
6940.00 0.981 0.802 0.747
6950.00 0.981 0.802 0.748
6960.00 0.982 0.802 0.748
6970.00 0.982 0.802 0.749
6980.00 0.983 0.803 0.749
6990.00 0.984 0.803 0.750
7000.00 0.984 0.803 0.750
7010.00 0.984 0.802 0.749
7020.00 0.982 0.799 0.746
7030.00 0.978 0.794 0.742
7040.00 0.969 0.787 0.735
7050.00 0.954 0.773 0.723
7060.00 0.930 0.753 0.704
7070.00 0.893 0.722 0.675
7080.00 0.841 0.678 0.635
7090.00 0.772 0.622 0.582
7100.00 0.687 0.553 0.517
7110.00 0.592 0.476 0.445
7120.00 0.494 0.396 0.371
7130.00 0.400 0.321 0.300
7140.00 0.316 0.253 0.237
7150.00 0.246 0.196 0.184
7160.00 0.189 0.151 0.141
7170.00 0.144 0.115 0.108
7180.00 0.110 0.087 0.082
7190.00 0.084 0.067 0.063
7200.00 0.065 0.051 0.048
7210.00 0.050 0.039 0.037
7220.00 0.039 0.031 0.029
7230.00 0.030 0.024 0.023
7240.00 0.024 0.019 0.018
7250.00 0.019 0.015 0.014
7260.00 0.015 0.012 0.011
7270.00 0.012 0.010 0.009
7280.00 0.010 0.008 0.007
7290.00 0.008 0.006 0.006
7300.00 0.007 0.005 0.005
7310.00 0.006 0.004 0.004
7320.00 0.005 0.004 0.003
7330.00 0.004 0.003 0.003
7340.00 0.003 0.003 0.002
7350.00 0.003 0.002 0.002
7360.00 0.002 0.002 0.002
7370.00 0.002 0.002 0.001
7380.00 0.002 0.001 0.001
7390.00 0.001 0.001 0.001
7400.00 0.001 0.001 0.001
7410.00 0.001 0.001 0.001
7420.00 0.001 0.001 0.001
7430.00 0.001 0.001 0.001
7440.00 0.001 0.000 0.000
7450.00 0.001 0.000 0.000
7460.00 0.000 0.000 0.000
7470.00 0.000 0.000 0.000
7480.00 0.000 0.000 0.000
7490.00 0.000 0.000 0.000
7500.00 0.000 0.000 0.000
7510.00 0.000 0.000 0.000
7520.00 0.000 0.000 0.000
7530.00 0.000 0.000 0.000
7540.00 0.000 0.000 0.000
7550.00 0.000 0.000 0.000
7560.00 0.000 0.000 0.000
7570.00 0.000 0.000 0.000
