# Area weighted transmission curve for zd filter (DECam style z filter for MOSAIC) k1038
  8000.00    0.00665
  8010.00    0.00730
  8020.00    0.00798
  8030.00    0.00867
  8040.00    0.00940
  8050.00    0.01024
  8060.00    0.01117
  8070.00    0.01222
  8080.00    0.01338
  8090.00    0.01469
  8100.00    0.01623
  8110.00    0.01809
  8120.00    0.02029
  8130.00    0.02288
  8140.00    0.02595
  8150.00    0.02966
  8160.00    0.03416
  8170.00    0.03958
  8180.00    0.04612
  8190.00    0.05411
  8200.00    0.06391
  8210.00    0.07589
  8220.00    0.09048
  8230.00    0.10823
  8240.00    0.12992
  8250.00    0.15625
  8260.00    0.18829
  8270.00    0.22729
  8280.00    0.27446
  8290.00    0.33168
  8300.00    0.40025
  8310.00    0.48259
  8320.00    0.58148
  8330.00    0.70059
  8340.00    0.84467
  8350.00    1.01814
  8360.00    1.22884
  8370.00    1.48717
  8380.00    1.80551
  8390.00    2.20068
  8400.00    2.69221
  8410.00    3.30854
  8420.00    4.09233
  8430.00    5.08892
  8440.00    6.36554
  8450.00    8.00347
  8460.00   10.11258
  8470.00   12.83697
  8480.00   16.28557
  8490.00   20.63092
  8500.00   25.98403
  8510.00   32.40370
  8520.00   39.85590
  8530.00   48.04761
  8540.00   56.63584
  8550.00   65.10940
  8560.00   72.97943
  8570.00   79.84843
  8580.00   85.46214
  8590.00   89.80727
  8600.00   93.01328
  8610.00   95.26116
  8620.00   96.76571
  8630.00   97.71869
  8640.00   98.29481
  8650.00   98.61433
  8660.00   98.75243
  8670.00   98.75295
  8680.00   98.65865
  8690.00   98.50919
  8700.00   98.33144
  8710.00   98.14738
  8720.00   97.98279
  8730.00   97.83170
  8740.00   97.70852
  8750.00   97.61617
  8760.00   97.56745
  8770.00   97.57116
  8780.00   97.60888
  8790.00   97.68939
  8800.00   97.80588
  8810.00   97.92873
  8820.00   98.06841
  8830.00   98.20235
  8840.00   98.34314
  8850.00   98.47061
  8860.00   98.57885
  8870.00   98.66456
  8880.00   98.72435
  8890.00   98.75381
  8900.00   98.75043
  8910.00   98.73695
  8920.00   98.72344
  8930.00   98.70686
  8940.00   98.72439
  8950.00   98.76556
  8960.00   98.78201
  8970.00   98.76604
  8980.00   98.72216
  8990.00   98.70039
  9000.00   98.71661
  9010.00   98.74112
  9020.00   98.76143
  9030.00   98.77362
  9040.00   98.77415
  9050.00   98.75958
  9060.00   98.72897
  9070.00   98.68113
  9080.00   98.61536
  9090.00   98.53330
  9100.00   98.43488
  9110.00   98.32393
  9120.00   98.20419
  9130.00   98.08051
  9140.00   97.95724
  9150.00   97.83931
  9160.00   97.72937
  9170.00   97.63049
  9180.00   97.54577
  9190.00   97.47615
  9200.00   97.42410
  9210.00   97.38960
  9220.00   97.37282
  9230.00   97.37339
  9240.00   97.39001
  9250.00   97.42239
  9260.00   97.46890
  9270.00   97.52651
  9280.00   97.59406
  9290.00   97.66964
  9300.00   97.75182
  9310.00   97.83706
  9320.00   97.92179
  9330.00   98.00146
  9340.00   98.07283
  9350.00   98.13430
  9360.00   98.18523
  9370.00   98.22775
  9380.00   98.26376
  9390.00   98.29108
  9400.00   98.31152
  9410.00   98.32236
  9420.00   98.32388
  9430.00   98.31616
  9440.00   98.29678
  9450.00   98.26532
  9460.00   98.21836
  9470.00   98.16186
  9480.00   98.09682
  9490.00   98.02637
  9500.00   97.95363
  9510.00   97.87960
  9520.00   97.81014
  9530.00   97.74966
  9540.00   97.69933
  9550.00   97.66282
  9560.00   97.63974
  9570.00   97.63149
  9580.00   97.63661
  9590.00   97.65542
  9600.00   97.68588
  9610.00   97.72646
  9620.00   97.77307
  9630.00   97.82315
  9640.00   97.87395
  9650.00   97.92279
  9660.00   97.96790
  9670.00   98.00559
  9680.00   98.03524
  9690.00   98.05628
  9700.00   98.06273
  9710.00   98.05438
  9720.00   98.02335
  9730.00   97.96746
  9740.00   97.88125
  9750.00   97.75639
  9760.00   97.58995
  9770.00   97.37352
  9780.00   97.10870
  9790.00   96.79490
  9800.00   96.43409
  9810.00   96.04076
  9820.00   95.62823
  9830.00   95.22561
  9840.00   94.86156
  9850.00   94.57127
  9860.00   94.39053
  9870.00   94.34563
  9880.00   94.45688
  9890.00   94.70786
  9900.00   95.05104
  9910.00   95.35922
  9920.00   95.41709
  9930.00   94.89140
  9940.00   93.33759
  9950.00   90.30234
  9960.00   85.39887
  9970.00   78.51228
  9980.00   69.93327
  9990.00   60.21763
 10000.00   50.19069
 10010.00   40.69056
 10020.00   32.25944
 10030.00   25.21228
 10040.00   19.56176
 10050.00   15.12186
 10060.00   11.70753
 10070.00    9.10433
 10080.00    7.11633
 10090.00    5.60378
 10100.00    4.45054
 10110.00    3.56669
 10120.00    2.88056
 10130.00    2.34339
 10140.00    1.92134
 10150.00    1.58598
 10160.00    1.31919
 10170.00    1.10567
 10180.00    0.93217
 10190.00    0.79058
 10200.00    0.67440
 10210.00    0.57824
 10220.00    0.49859
 10230.00    0.43231
 10240.00    0.37656
 10250.00    0.32939
 10260.00    0.28926
 10270.00    0.25508
 10280.00    0.22568
 10290.00    0.20030
 10300.00    0.17838
 10310.00    0.15909
 10320.00    0.14226
 10330.00    0.12737
 10340.00    0.11437
 10350.00    0.10297
 10360.00    0.09284
 10370.00    0.08381
 10380.00    0.07564
 10390.00    0.06834
 10400.00    0.06173
 10410.00    0.05581
 10420.00    0.05036
 10430.00    0.04552
 10440.00    0.04118
 10450.00    0.03726
 10460.00    0.03375
 10470.00    0.03051
 10480.00    0.02757
 10490.00    0.02488
 10500.00    0.02255
